 Refx, Refy, xc, yc, Theta, y1, y2 
 1.591549, 0.000000, 0.000000, 0.000000, 0.000000, 0.300000, 0.000000
 1.587028, 0.119886, 0.000000, 0.000000, 0.000000, 0.300000, 0.000000
 1.573488, 0.239091, 0.000000, 0.000000, 0.000000, 0.300000, 0.000000
 1.551008, 0.356938, -0.000000, -0.000000, -0.000000, 0.300000, 0.000000
 1.519714, 0.472756, 0.000000, 0.000000, 0.000000, 0.300000, 0.000000
 1.479785, 0.585888, 0.000000, 0.000000, 0.000000, 0.300000, 0.000000
 1.431448, 0.695691, 0.000000, 0.000000, 0.000000, 0.300000, 0.000000
 1.374977, 0.801541, 0.000000, 0.000000, 0.000000, 0.300000, 0.000000
 1.310693, 0.902837, 0.126116, 0.126116, 0.126116, 0.424667, 0.155561
 1.238961, 0.999002, 0.141820, 0.141820, 0.141820, 0.439987, 0.174931
 1.160190, 1.089491, -0.184141, -0.184141, -0.184141, 0.111992, -0.232152
 1.074826, 1.173789, 0.953249, 0.953249, 0.953249, 1.168204, 1.162519
 0.983354, 1.251417, 0.318436, 0.318436, 0.318436, 0.446286, 0.047043
 0.886295, 1.321934, 0.331136, 0.331136, 0.331136, 0.432888, 0.048919
 0.784200, 1.384940, 0.096398, 0.096398, 0.096398, 0.395010, 0.125220
 0.677649, 1.440077, 0.137359, 0.137359, 0.137359, 0.435225, 0.173080
 0.567247, 1.487031, 0.178584, 0.178584, 0.178584, 0.475100, 0.224174
 0.453622, 1.525535, 0.189650, 0.189650, 0.189650, 0.485718, 0.238065
 0.337420, 1.555370, -0.077300, -0.077300, -0.077300, 0.221936, -0.098709
 0.219300, 1.576368, 1.194280, 1.194280, 1.194280, 1.284853, 1.480281
 0.099935, 1.588409, -0.797828, -0.797828, -0.797828, -0.956032, -1.052723
 -0.019999, 1.591424, -0.740778, -0.740778, -0.740778, -0.925137, -0.977446
 -0.139819, 1.585396, 0.636626, 0.636626, 0.636626, 0.578810, 0.931002
 -0.258844, 1.570360, 0.174799, 0.174799, 0.174799, 0.470795, 0.223654
 -0.376399, 1.546400, 0.477488, 0.477488, 0.477488, 0.744937, 0.613394
 -0.491815, 1.513654, 0.495802, 0.495802, 0.495802, 0.760539, 0.636921
 -0.604436, 1.472307, -0.512913, -0.512913, -0.512913, -0.350096, -0.764886
 -0.713623, 1.422593, 0.433309, 0.433309, 0.433309, 0.437685, 0.733277
 -0.818755, 1.364797, 1.455640, 1.455640, 1.455640, 1.518856, 1.748904
 -0.919234, 1.299245, 1.378279, 1.378279, 1.378279, 1.491834, 1.655957
 -1.014491, 1.226311, 0.816420, 0.816420, 0.816420, 0.991670, 0.572930
 -1.103982, 1.146409, -0.599938, -0.599938, -0.599938, -0.679771, -0.889121
 -1.187201, 1.059992, 2.143468, 2.143468, 2.143468, 2.197095, 1.848300
 -1.263674, 0.967553, 2.059164, 2.059164, 2.059164, 2.157115, 1.775605
 -1.332966, 0.869615, -0.754380, -0.754380, -0.754380, -0.929806, -0.511017
 -1.394684, 0.766737, 0.292501, 0.292501, 0.292501, 0.149175, 0.028953
 -1.448478, 0.659501, 2.308606, 2.308606, 2.308606, 2.288347, 2.009291
 -1.494041, 0.548518, 2.309522, 2.309522, 2.309522, 2.327943, 2.010088
 -1.531114, 0.434419, 0.768771, 0.768771, 0.768771, 0.566313, 0.990155
 -1.559487, 0.317851, 0.411287, 0.411287, 0.411287, 0.297389, 0.133750
 -1.578999, 0.199477, -0.165757, -0.165757, -0.165757, -0.399837, 0.021877
 -1.589539, 0.079969, -0.152702, -0.152702, -0.152702, -0.397898, 0.020154
 -1.591047, -0.039993, -0.230115, -0.230115, -0.230115, -0.075853, 0.027185
 -1.583514, -0.159728, 0.389401, 0.389401, 0.389401, 0.097198, 0.457352
 -1.566983, -0.278555, -0.527324, -0.527324, -0.527324, -0.768976, -0.349547
 -1.541549, -0.395799, -0.586819, -0.586819, -0.586819, -0.812345, -0.388985
 -1.507355, -0.510794, -0.494420, -0.494420, -0.494420, -0.544393, -0.198611
 -1.464596, -0.622887, 0.657687, 0.657687, 0.657687, 0.417526, 0.837473
 -1.413515, -0.731441, -0.229233, -0.229233, -0.229233, -0.491284, -0.083188
 -1.354402, -0.835838, -0.308854, -0.308854, -0.308854, -0.535306, -0.112082
 -1.287593, -0.935486, -0.156344, -0.156344, -0.156344, -0.425644, -0.024141
 -1.213467, -1.029819, -0.176180, -0.176180, -0.176180, -0.468000, -0.106601
 -1.132447, -1.118299, 0.783876, 0.783876, 0.783876, 0.574554, 0.568971
 -1.044992, -1.200426, 0.647037, 0.647037, 0.647037, 0.405102, 0.469648
 -0.951599, -1.275731, 1.898080, 1.898080, 1.898080, 1.979850, 1.609439
 -0.852799, -1.343787, 0.527258, 0.527258, 0.527258, 0.388716, 0.261163
 -0.749153, -1.404208, 0.759568, 0.759568, 0.759568, 0.757205, 1.059559
 -0.641250, -1.456650, 0.757392, 0.757392, 0.757392, 0.780209, 1.056523
 -0.529703, -1.500814, -0.157793, -0.157793, -0.157793, 0.087007, -0.331209
 -0.415147, -1.536451, 0.399156, 0.399156, 0.399156, 0.294397, 0.118040
 -0.298231, -1.563358, -0.560423, -0.560423, -0.560423, -0.274486, -0.469647
 -0.179622, -1.581381, -0.569459, -0.569459, -0.569459, -0.283992, -0.477220
 -0.059991, -1.590418, 0.228429, 0.228429, 0.228429, 0.517492, 0.308697
 0.059980, -1.590419, -0.817614, -0.817614, -0.817614, -1.064360, -0.988250
 0.179611, -1.581382, 0.487252, 0.487252, 0.487252, 0.782716, 0.435281
 0.298221, -1.563360, 0.763791, 0.763791, 0.763791, 1.052517, 0.682324
 0.415137, -1.536454, 0.033316, 0.033316, 0.033316, 0.332122, 0.006580
 0.529693, -1.500818, -0.068193, -0.068193, -0.068193, 0.212675, 0.037226
 0.641240, -1.456654, 0.384499, 0.384499, 0.384499, 0.128403, 0.540751
 0.749143, -1.404213, 0.299193, 0.299193, 0.299193, 0.024936, 0.420779
 0.852790, -1.343793, 0.012541, 0.012541, 0.012541, 0.170302, -0.242628
 0.951590, -1.275737, -0.290484, -0.290484, -0.290484, -0.016250, -0.168845
 1.044984, -1.200433, -0.402106, -0.402106, -0.402106, -0.681897, -0.510353
 1.132440, -1.118307, -0.539335, -0.539335, -0.539335, -0.801862, -0.684523
 1.213461, -1.029827, 0.146820, 0.146820, 0.146820, -0.151032, 0.110989
 1.287587, -0.935495, 0.555093, 0.555093, 0.555093, 0.276082, 0.444853
 1.354396, -0.835847, 0.527440, 0.527440, 0.527440, 0.274317, 0.366417
 1.413510, -0.731450, 0.427442, 0.427442, 0.427442, 0.157310, 0.296948
 1.464592, -0.622897, 0.546693, 0.546693, 0.546693, 0.458845, 0.259844
 1.507351, -0.510804, -1.172175, -1.172175, -1.172175, -1.122902, -0.876249
 1.541546, -0.395809, -0.605331, -0.605331, -0.605331, -0.868400, -0.749535
 1.566982, -0.278565, -0.654973, -0.654973, -0.654973, -0.911205, -0.811003
 1.583513, -0.159738, -2.154228, -2.154228, -2.154228, -2.017578, -1.887158
 1.591047, -0.040003, 2.592139, 2.592139, 2.592139, 2.576729, 2.891743
 1.589540, -0.079959, -0.689205, -0.689205, -0.689205, -0.932063, -0.513081
 1.579001, -0.199466, -0.427929, -0.427929, -0.427929, -0.707288, -0.318573
 1.559489, -0.317841, 0.182896, 0.182896, 0.182896, 0.287323, -0.098342
 1.531117, -0.434409, -1.287231, -1.287231, -1.287231, -1.467575, -1.047490
 1.494044, -0.548509, -0.702034, -0.702034, -0.702034, -0.435160, -0.839068
 1.448482, -0.659492, -0.804851, -0.804851, -0.804851, -0.549276, -0.961954
 1.394689, -0.766727, -0.910127, -0.910127, -0.910127, -0.957410, -0.613876
 1.332972, -0.869606, -2.093887, -2.093887, -2.093887, -1.937905, -2.350148
 1.263680, -0.967544, -2.424694, -2.424694, -2.424694, -2.408540, -2.125129
 1.187208, -1.059984, -2.316808, -2.316808, -2.316808, -2.406636, -2.030572
 1.103990, -1.146401, -2.862527, -2.862527, -2.862527, -2.999473, -3.129447
 1.014499, -1.226304, -2.449368, -2.449368, -2.449368, -2.692548, -2.273688
 0.919243, -1.299239, -0.528580, -0.528580, -0.528580, -0.565942, -0.826244
 0.818764, -1.364791, -0.418842, -0.418842, -0.418842, -0.604225, -0.654708
 0.713632, -1.422589, -0.845835, -0.845835, -0.845835, -0.571914, -0.723494
 0.604446, -1.472303, 0.852906, 0.852906, 0.852906, 1.042701, 1.085238
 0.491825, -1.513651, 0.552602, 0.552602, 0.552602, 0.839340, 0.640816
 0.376409, -1.546398, 0.778481, 0.778481, 0.778481, 1.051531, 0.902752
 0.258855, -1.570358, 0.835682, 0.835682, 0.835682, 0.639775, 0.608480
 0.139829, -1.585395, 0.241184, 0.241184, 0.241184, -0.028147, 0.373323
 0.020009, -1.591424, -0.733375, -0.733375, -0.733375, -0.914737, -0.972348
 -0.099924, -1.588410, -0.685470, -0.685470, -0.685470, -0.885743, -0.908832
 -0.219290, -1.576370, 2.119054, 2.119054, 2.119054, 2.084339, 1.821069
 -0.337410, -1.555373, -2.489053, -2.489053, -2.489053, -2.443468, -2.192536
 -0.453612, -1.525538, -0.088415, -0.088415, -0.088415, -0.386349, -0.053269
 -0.567237, -1.487034, 0.107770, 0.107770, 0.107770, -0.189156, 0.064930
 -0.677639, -1.440082, 0.000819, 0.000819, 0.000819, -0.097393, 0.284288
 -0.784191, -1.384946, 0.819639, 0.819639, 0.819639, 1.067451, 0.988722
 -0.886286, -1.321941, -0.529975, -0.529975, -0.529975, -0.800674, -0.400662
 -0.983345, -1.251424, -0.374345, -0.374345, -0.374345, -0.660103, -0.283006
 -1.074817, -1.173796, 1.825119, 1.825119, 1.825119, 1.848579, 2.124200
 -1.160182, -1.089499, -0.302215, -0.302215, -0.302215, -0.597006, -0.357880
 -1.238954, -0.999011, 0.593025, 0.593025, 0.593025, 0.300008, 0.657376
 -1.310686, -0.902846, 0.524745, 0.524745, 0.524745, 0.230199, 0.581687
 -1.374971, -0.801551, 0.687811, 0.687811, 0.687811, 0.936759, 0.855217
 -1.431443, -0.695702, 1.091244, 1.091244, 1.091244, 0.929617, 0.838506
 -1.479781, -0.585899, -0.211303, -0.211303, -0.211303, -0.493842, -0.312159
 -1.519711, -0.472768, -0.101664, -0.101664, -0.101664, -0.397713, -0.150188
 -1.551005, -0.356950, -0.423112, -0.423112, -0.423112, -0.714239, -0.495535
 -1.573486, -0.239103, 0.152259, 0.152259, 0.152259, 0.399510, 0.322163
 -1.587027, -0.119899, -0.205616, -0.205616, -0.205616, 0.079274, -0.111608
 -1.591549, -0.000012, -0.299104, -0.299104, -0.299104, -0.032085, -0.162353
 -1.587029, 0.119874, -0.235360, -0.235360, -0.235360, -0.463987, -0.041118
 -1.573490, 0.239079, 1.237413, 1.237413, 1.237413, 1.031735, 1.455808
 -1.551011, 0.356926, 1.248090, 1.248090, 1.248090, 1.161661, 1.535370
 -1.519718, 0.472744, 1.260310, 1.260310, 1.260310, 1.183851, 1.550403
 -1.479790, 0.585876, -0.275914, -0.275914, -0.275914, -0.320540, -0.572576
 -1.431454, 0.695680, 0.838269, 0.838269, 0.838269, 0.819050, 1.137653
 -1.374983, 0.801530, 0.048290, 0.048290, 0.048290, 0.102588, 0.343335
 -1.310700, 0.902826, -0.357788, -0.357788, -0.357788, -0.181730, -0.114881
 -1.238970, 0.998991, -0.401452, -0.401452, -0.401452, -0.276087, -0.128901
 -1.160198, 1.089481, 0.270111, 0.270111, 0.270111, 0.527970, 0.423437
 -1.074834, 1.173781, -0.212664, -0.212664, -0.212664, -0.007754, 0.006452
 -0.983363, 1.251410, -0.064966, -0.064966, -0.064966, -0.337610, 0.060196
 -0.886303, 1.321929, -0.041983, -0.041983, -0.041983, -0.330874, 0.038900
 -0.784208, 1.384936, -1.027585, -1.027585, -1.027585, -0.876312, -1.286653
 -0.677656, 1.440073, 0.006110, 0.006110, 0.006110, 0.306106, 0.004609
 -0.567254, 1.487028, 0.413512, 0.413512, 0.413512, 0.555182, 0.149070
 -0.453629, 1.525533, 0.356681, 0.356681, 0.356681, 0.551543, 0.128582
 -0.337426, 1.555369, 0.355247, 0.355247, 0.355247, 0.061601, 0.293829
 -0.219305, 1.576368, 1.327577, 1.327577, 1.327577, 1.307506, 1.626905
 -0.099938, 1.588409, -0.536193, -0.536193, -0.536193, -0.719496, -0.298706
 0.019996, 1.591424, -0.403466, -0.403466, -0.403466, -0.644435, -0.224766
 0.139817, 1.585396, 1.120419, 1.120419, 1.120419, 0.899271, 1.323134
 0.258843, 1.570360, -1.189395, -1.189395, -1.189395, -1.187575, -1.489389
 0.376399, 1.546400, -1.161534, -1.161534, -1.161534, -1.413880, -0.999295
 0.491816, 1.513653, -1.206189, -1.206189, -1.206189, -1.454415, -1.037713
 0.604438, 1.472306, 0.215928, 0.215928, 0.215928, 0.507818, 0.285213
 0.713626, 1.422592, 1.877288, 1.877288, 1.877288, 1.844516, 1.579083
 0.818758, 1.364795, -0.019979, -0.019979, -0.019979, 0.240559, 0.128748
 0.919238, 1.299242, -0.012553, -0.012553, -0.012553, 0.272521, 0.080894
 1.014495, 1.226307, -0.697037, -0.697037, -0.697037, -0.427402, -0.565520
 1.103987, 1.146404, 1.467808, 1.467808, 1.467808, 1.462040, 1.167863
 1.187206, 1.059986, -0.280095, -0.280095, -0.280095, -0.560643, -0.386364
 1.263679, 0.967546, -0.050762, -0.050762, -0.050762, -0.350143, -0.070020
 1.332971, 0.869607, -1.032501, -1.032501, -1.032501, -0.886139, -1.294375
 1.394689, 0.766727, 0.899318, 0.899318, 0.899318, 0.971368, 0.608099
 1.448482, 0.659491, -1.587419, -1.587419, -1.587419, -1.704506, -1.311212
 1.494045, 0.548507, -1.604868, -1.604868, -1.604868, -1.714517, -1.325625
 1.531118, 0.434406, 1.348881, 1.348881, 1.348881, 1.314479, 1.646902
 1.559490, 0.317837, 0.422125, 0.422125, 0.422125, 0.699534, 0.307915
 1.579001, 0.199462, -1.647882, -1.647882, -1.647882, -1.472842, -1.404240
 1.589540, 0.079953, -1.509997, -1.509997, -1.509997, -1.309605, -1.286742
